XDAC V1.4 Datafile V1
"Fe_lepidocrocite.200" created on 11/3/2011 at 4:47:20 PM on X-23A2
Diffraction element= Si (311).  Ring energy= 2.80 GeV
E0= 7112.00
NUM_REGIONS= 4
SRB= -200 -20 30 60 15k
SRSS= 10 0.25 0.05k 0.05k
SPP= 0.5 0.5 0.5 0.125k
Settling time= 0.00


Offsets= 0.00 37.25 86.25 0.00
Gains= 8.00 8.00 9.00 1.00
gamma-FeOOH on tape


--------------------------------------------------------------------------------
        Energy            I0            It            Ir       IntTime
    6912.00137     4140.0000      607.3750     2226.8750        0.5000
    6921.99811     4141.0000      614.3750     2257.8750        0.5000
    6931.99952     4164.0000      624.3750     2300.8750        0.5000
    6942.00100     4176.0000      632.3750     2335.8750        0.5000
    6951.99793     4167.0000      637.3750     2362.8750        0.5000
    6961.99916     4176.0000      646.3750     2401.8750        0.5000
    6972.00005     4164.0000      651.3750     2427.8750        0.5000
    6982.00050     4161.0000      657.3750     2461.8750        0.5000
    6992.00035     4177.0000      667.3750     2508.8750        0.5000
    7001.99948     4178.0000      674.3750     2542.8750        0.5000
    7011.99777     4158.0000      678.3750     2562.8750        0.5000
    7021.99962     4153.0000      684.3750     2590.8750        0.5000
    7032.00039     4157.0000      692.3750     2627.8750        0.5000
    7041.99992     4146.0000      696.3750     2649.8750        0.5000
    7051.99811     4156.0000      705.3750     2688.8750        0.5000
    7061.99940     4177.0000      715.3750     2734.8750        0.5000
    7071.99909     4188.0000      724.3750     2780.8750        0.5000
    7082.00166     4186.0000      731.3750     2811.8750        0.5000
    7091.99780     4182.0000      737.3750     2839.8750        0.5000
    7092.25090     4190.0000      739.3750     2845.8750        0.5000
    7092.49942     4192.0000      740.3750     2847.8750        0.5000
    7092.74794     4178.0000      737.3750     2838.8750        0.5000
    7093.00108     4202.0000      742.3750     2854.8750        0.5000
    7093.24962     4181.0000      738.3750     2843.8750        0.5000
    7093.49818     4195.0000      741.3750     2856.8750        0.5000
    7093.75135     4188.0000      739.3750     2849.8750        0.5000
    7093.99992     4198.0000      742.3750     2858.8750        0.5000
    7094.24851     4192.0000      741.3750     2854.8750        0.5000
    7094.50171     4192.0000      741.3750     2854.8750        0.5000
    7094.75031     4182.0000      739.3750     2848.8750        0.5000
    7094.99893     4177.0000      738.3750     2847.8750        0.5000
    7095.25216     4176.0000      738.3750     2844.8750        0.5000
    7095.50080     4190.0000      741.3750     2854.8750        0.5000
    7095.74944     4190.0000      742.3750     2856.8750        0.5000
    7095.99810     4197.0000      743.3750     2859.8750        0.5000
    7096.25137     4165.0000      738.3750     2842.8750        0.5000
    7096.50005     4205.0000      745.3750     2868.8750        0.5000
    7096.74874     4190.0000      742.3750     2860.8750        0.5000
    7097.00204     4185.0000      741.3750     2854.8750        0.5000
    7097.25075     4192.0000      743.3750     2859.8750        0.5000
    7097.49947     4186.0000      742.3750     2856.8750        0.5000
    7097.74820     4200.0000      745.3750     2867.8750        0.5000
    7098.00154     4189.0000      742.3750     2860.8750        0.5000
    7098.25029     4188.0000      743.3750     2860.8750        0.5000
    7098.49905     4190.0000      743.3750     2862.8750        0.5000
    7098.74782     4189.0000      743.3750     2860.8750        0.5000
    7099.00121     4180.0000      742.3750     2856.8750        0.5000
    7099.25000     4178.0000      742.3750     2856.8750        0.5000
    7099.49880     4185.0000      743.3750     2859.8750        0.5000
    7099.75221     4187.0000      743.3750     2862.8750        0.5000
    7100.00103     4187.0000      744.3750     2861.8750        0.5000
    7100.24986     4197.0000      746.3750     2870.8750        0.5000
    7100.49871     4187.0000      745.3750     2864.8750        0.5000
    7100.75216     4198.0000      747.3750     2871.8750        0.5000
    7101.00103     4172.0000      742.3750     2854.8750        0.5000
    7101.24990     4195.0000      747.3750     2872.8750        0.5000
    7101.49878     4186.0000      745.3750     2865.8750        0.5000
    7101.75228     4206.0000      748.3750     2877.8750        0.5000
    7102.00118     4189.0000      745.3750     2869.8750        0.5000
    7102.25009     4180.0000      744.3750     2860.8750        0.5000
    7102.49901     4195.0000      747.3750     2872.8750        0.5000
    7102.74795     4178.0000      744.3750     2860.8750        0.5000
    7103.00150     4185.0000      745.3750     2865.8750        0.5000
    7103.25045     4187.0000      746.3750     2868.8750        0.5000
    7103.49941     4179.0000      745.3750     2860.8750        0.5000
    7103.74839     4186.0000      746.3750     2866.8750        0.5000
    7104.00198     4185.0000      745.3750     2867.8750        0.5000
    7104.25098     4181.0000      745.3750     2860.8750        0.5000
    7104.49998     4176.0000      745.3750     2859.8750        0.5000
    7104.74899     4196.0000      749.3750     2872.8750        0.5000
    7104.99802     4182.0000      745.3750     2862.8750        0.5000
    7105.25166     4194.0000      748.3750     2872.8750        0.5000
    7105.50071     4187.0000      747.3750     2864.8750        0.5000
    7105.74976     4186.0000      747.3750     2864.8750        0.5000
    7105.99883     4169.0000      744.3750     2851.8750        0.5000
    7106.24790     4179.0000      746.3750     2859.8750        0.5000
    7106.50160     4182.0000      747.3750     2861.8750        0.5000
    7106.75069     4176.0000      746.3750     2855.8750        0.5000
    7106.99980     4168.0000      745.3750     2849.8750        0.5000
    7107.24891     4182.0000      747.3750     2858.8750        0.5000
    7107.49804     4181.0000      747.3750     2857.8750        0.5000
    7107.75179     4168.0000      744.3750     2844.8750        0.5000
    7108.00093     4190.0000      749.3750     2858.8750        0.5000
    7108.25009     4183.0000      748.3750     2852.8750        0.5000
    7108.49926     4178.0000      747.3750     2846.8750        0.5000
    7108.74843     4195.0000      750.3750     2855.8750        0.5000
    7109.00223     4175.0000      747.3750     2840.8750        0.5000
    7109.25143     4177.0000      747.3750     2838.8750        0.5000
    7109.50064     4174.0000      747.3750     2831.8750        0.5000
    7109.74985     4170.0000      746.3750     2825.8750        0.5000
    7109.99908     4171.0000      746.3750     2821.8750        0.5000
    7110.24832     4170.0000      746.3750     2813.8750        0.5000
    7110.50218     4179.0000      748.3750     2810.8750        0.5000
    7110.75144     4178.0000      748.3750     2798.8750        0.5000
    7111.00071     4158.0000      744.3750     2770.8750        0.5000
    7111.24998     4158.0000      745.3750     2748.8750        0.5000
    7111.49927     4156.0000      744.3750     2717.8750        0.5000
    7111.74857     4183.0000      748.3750     2694.8750        0.5000
    7111.99788     4154.0000      743.3750     2614.8750        0.5000
    7112.25181     4147.0000      742.3750     2536.8750        0.5000
    7112.50114     4169.0000      746.3750     2475.8750        0.5000
    7112.75048     4155.0000      742.3750     2399.8750        0.5000
    7112.99983     4175.0000      745.3750     2350.8750        0.5000
    7113.24919     4167.0000      742.3750     2303.8750        0.5000
    7113.49856     4147.0000      736.3750     2252.8750        0.5000
    7113.74794     4148.0000      734.3750     2217.8750        0.5000
    7114.00194     4153.0000      733.3750     2192.8750        0.5000
    7114.25134     4163.0000      736.3750     2179.8750        0.5000
    7114.50075     4144.0000      734.3750     2148.8750        0.5000
    7114.75017     4157.0000      737.3750     2132.8750        0.5000
    7114.99960     4139.0000      733.3750     2100.8750        0.5000
    7115.24904     4159.0000      736.3750     2088.8750        0.5000
    7115.49849     4151.0000      734.3750     2073.8750        0.5000
    7115.74795     4152.0000      736.3750     2060.8750        0.5000
    7116.00204     4157.0000      737.3750     2058.8750        0.5000
    7116.25152     4147.0000      737.3750     2049.8750        0.5000
    7116.50101     4150.0000      737.3750     2042.8750        0.5000
    7116.75052     4146.0000      736.3750     2036.8750        0.5000
    7117.00003     4159.0000      738.3750     2038.8750        0.5000
    7117.24955     4162.0000      738.3750     2033.8750        0.5000
    7117.49908     4138.0000      734.3750     2013.8750        0.5000
    7117.74862     4156.0000      736.3750     2008.8750        0.5000
    7117.99817     4138.0000      732.3750     1981.8750        0.5000
    7118.24773     4148.0000      734.3750     1966.8750        0.5000
    7118.50193     4139.0000      732.3750     1932.8750        0.5000
    7118.75151     4150.0000      733.3750     1906.8750        0.5000
    7119.00110     4148.0000      732.3750     1878.8750        0.5000
    7119.25070     4140.0000      730.3750     1837.8750        0.5000
    7119.50031     4141.0000      730.3750     1798.8750        0.5000
    7119.74994     4144.0000      728.3750     1760.8750        0.5000
    7119.99957     4149.0000      728.3750     1731.8750        0.5000
    7120.24921     4146.0000      727.3750     1698.8750        0.5000
    7120.49886     4142.0000      724.3750     1665.8750        0.5000
    7120.74853     4139.0000      722.3750     1631.8750        0.5000
    7120.99820     4139.0000      720.3750     1591.8750        0.5000
    7121.24788     4142.0000      719.3750     1565.8750        0.5000
    7121.50220     4141.0000      715.3750     1530.8750        0.5000
    7121.75190     4138.0000      711.3750     1493.8750        0.5000
    7122.00161     4133.0000      704.3750     1451.8750        0.5000
    7122.25134     4132.0000      699.3750     1417.8750        0.5000
    7122.50107     4121.0000      692.3750     1381.8750        0.5000
    7122.75082     4135.0000      686.3750     1348.8750        0.5000
    7123.00057     4126.0000      678.3750     1314.8750        0.5000
    7123.25033     4117.0000      666.3750     1274.8750        0.5000
    7123.50011     4134.0000      660.3750     1249.8750        0.5000
    7123.74989     4126.0000      649.3750     1219.8750        0.5000
    7123.99968     4135.0000      641.3750     1191.8750        0.5000
    7124.24949     4124.0000      630.3750     1158.8750        0.5000
    7124.49930     4123.0000      623.3750     1134.8750        0.5000
    7124.74913     4122.0000      616.3750     1112.8750        0.5000
    7124.99896     4124.0000      608.3750     1090.8750        0.5000
    7125.24881     4123.0000      600.3750     1067.8750        0.5000
    7125.49866     4126.0000      591.3750     1044.8750        0.5000
    7125.74852     4122.0000      583.3750     1023.8750        0.5000
    7125.99840     4122.0000      577.3750     1005.8750        0.5000
    7126.24828     4107.0000      564.3750      975.8750        0.5000
    7126.49818     4047.0000      547.3750      941.8750        0.5000
    7126.74808     4057.0000      535.3750      908.8750        0.5000
    7126.99800     4095.0000      531.3750      897.8750        0.5000
    7127.24792     4102.0000      521.3750      877.8750        0.5000
    7127.49786     4098.0000      511.3750      853.8750        0.5000
    7127.74780     4106.0000      501.3750      831.8750        0.5000
    7127.99776     4101.0000      487.3750      800.8750        0.5000
    7128.24772     4102.0000      473.3750      770.8750        0.5000
    7128.49770     4103.0000      459.3750      738.8750        0.5000
    7128.74769     4090.0000      441.3750      704.8750        0.5000
    7129.00231     4104.0000      431.3750      679.8750        0.5000
    7129.24769     4107.0000      422.3750      656.8750        0.5000
    7129.49770     4094.0000      411.3750      632.8750        0.5000
    7129.74773     4110.0000      404.3750      615.8750        0.5000
    7129.99776     4111.0000      398.3750      597.8750        0.5000
    7130.24781     4092.0000      391.3750      580.8750        0.5000
    7130.49787     4089.0000      387.3750      569.8750        0.5000
    7130.74793     4038.0000      377.3750      552.8750        0.5000
    7130.99801     4015.0000      372.3750      536.8750        0.5000
    7131.24810     4061.0000      373.3750      536.8750        0.5000
    7131.49819     4078.0000      373.3750      531.8750        0.5000
    7131.74830     4053.0000      368.3750      525.8750        0.5000
    7131.99842     4086.0000      370.3750      526.8750        0.5000
    7132.24854     4066.0000      367.3750      523.8750        0.5000
    7132.49868     4075.0000      367.3750      527.8750        0.5000
    7132.74883     4076.0000      367.3750      530.8750        0.5000
    7132.99898     4076.0000      369.3750      535.8750        0.5000
    7133.24915     4070.0000      370.3750      540.8750        0.5000
    7133.49933     4075.0000      371.3750      549.8750        0.5000
    7133.74951     4075.0000      374.3750      559.8750        0.5000
    7133.99971     4071.0000      377.3750      568.8750        0.5000
    7134.24992     4073.0000      380.3750      578.8750        0.5000
    7134.50013     4079.0000      384.3750      589.8750        0.5000
    7134.75036     4089.0000      388.3750      601.8750        0.5000
    7135.00060     4080.0000      389.3750      608.8750        0.5000
    7135.25085     4076.0000      392.3750      618.8750        0.5000
    7135.50110     4086.0000      396.3750      629.8750        0.5000
    7135.75137     4078.0000      398.3750      637.8750        0.5000
    7136.00165     4070.0000      399.3750      640.8750        0.5000
    7136.25194     4087.0000      402.3750      648.8750        0.5000
    7136.50223     4078.0000      402.3750      653.8750        0.5000
    7136.74791     4068.0000      403.3750      655.8750        0.5000
    7136.99822     4072.0000      404.3750      659.8750        0.5000
    7137.24855     4060.0000      405.3750      661.8750        0.5000
    7137.49889     4078.0000      408.3750      667.8750        0.5000
    7137.74924     4066.0000      408.3750      669.8750        0.5000
    7137.99960     4072.0000      410.3750      671.8750        0.5000
    7138.24996     4076.0000      412.3750      675.8750        0.5000
    7138.50034     4077.0000      414.3750      678.8750        0.5000
    7138.75073     4093.0000      417.3750      681.8750        0.5000
    7139.00113     4074.0000      417.3750      680.8750        0.5000
    7139.25154     4086.0000      420.3750      684.8750        0.5000
    7139.50195     4076.0000      421.3750      684.8750        0.5000
    7139.74774     4076.0000      423.3750      683.8750        0.5000
    7139.99818     4079.0000      424.3750      684.8750        0.5000
    7140.24863     4074.0000      426.3750      685.8750        0.5000
    7140.49909     4093.0000      430.3750      689.8750        0.5000
    7140.74956     4069.0000      431.3750      687.8750        0.5000
    7141.00004     4086.0000      434.3750      691.8750        0.5000
    7141.25052     4074.0000      435.3750      690.8750        0.5000
    7141.50102     4072.0000      437.3750      691.8750        0.5000
    7141.75153     4085.0000      440.3750      695.8750        0.5000
    7143.07847     4093.0000      450.3750      708.8750        0.5000
    7144.17827     4072.0000      455.3750      718.8750        0.5000
    7145.29220     4084.0000      462.3750      734.8750        0.5000
    7146.42953     4076.0000      466.3750      738.8750        0.5000
    7147.58565     4065.0000      467.3750      734.8750        0.5000
    7148.75592     4073.0000      470.3750      729.8750        0.5000
    7149.94962     4058.0000      476.3750      722.8750        0.5000
    7151.16214     4074.0000      487.3750      730.8750        0.5000
    7152.39348     4009.0000      490.3750      731.8750        0.5000
    7153.64366     4069.0000      509.3750      752.8750        0.5000
    7154.91268     4087.0000      519.3750      765.8750        0.5000
    7156.20055     4093.0000      527.3750      777.8750        0.5000
    7157.50730     4049.0000      525.3750      778.8750        0.5000
    7158.83292     4092.0000      534.3750      798.8750        0.5000
    7160.18208     4091.0000      536.3750      803.8750        0.5000
    7161.54549     4095.0000      538.3750      807.8750        0.5000
    7162.92782     4108.0000      541.3750      813.8750        0.5000
    7164.32907     4111.0000      542.3750      818.8750        0.5000
    7165.75392     4122.0000      542.3750      822.8750        0.5000
    7167.19306     4110.0000      538.3750      818.8750        0.5000
    7168.65117     4125.0000      534.3750      818.8750        0.5000
    7170.13291     4133.0000      531.3750      813.8750        0.5000
    7171.62898     4130.0000      523.3750      806.8750        0.5000
    7173.52171     4165.0000      518.3005      805.7025        0.5020
    7175.06056     4227.0000      518.0398      813.0987        0.5090
    7176.62310     4276.0000      515.8162      822.5812        0.5150
    7178.20002     4341.0000      517.5928      836.0638        0.5210
    7179.79600     4391.0000      520.3692      853.5462        0.5270
    7181.41573     4463.0000      527.1085      874.9425        0.5340
    7183.04987     4515.0000      531.8850      885.4250        0.5400
    7184.70312     4578.0000      539.6615      899.9075        0.5460
    7186.38015     4633.0000      548.4380      910.3900        0.5520
    7188.07164     4691.0000      558.1772      919.7862        0.5590
    7189.78228     4752.0000      568.9538      925.2687        0.5650
    7191.51676     4814.0000      581.7302      929.7513        0.5710
    7193.26573     4852.0000      589.5068      929.2337        0.5770
    7195.03389     4926.0000      604.2460      936.6300        0.5840
    7196.82126     4979.0000      614.0225      947.1125        0.5900
    7198.62785     5032.0000      624.7990      968.5950        0.5960
    7200.45368     5086.0000      634.5755     1001.0775        0.6020
    7202.30344     5162.0000      646.3148     1040.4738        0.6090
    7204.16778     5208.0000      654.0912     1074.9562        0.6150
    7206.05141     5250.0000      660.8678     1112.4388        0.6210
    7207.94966     5297.0000      669.6443     1142.9213        0.6270
    7209.87190     5365.0000      679.3835     1165.3175        0.6340
    7211.81348     5405.0000      687.1600     1160.8000        0.6400
    7213.77441     5447.0000      693.9365     1133.2825        0.6460
    7215.75000     5507.0000      704.7130     1093.7650        0.6520
    7217.74968     5573.0000      714.4523     1062.1613        0.6590
    7219.76875     5623.0000      724.2287     1035.6437        0.6650
    7221.80255     5660.0000      732.0053     1028.1263        0.6710
    7223.85577     5707.0000      738.7817     1044.6088        0.6770
    7225.93315     5763.0000      748.5210     1090.0050        0.6840
    7228.02529     5831.0000      761.2975     1153.4875        0.6900
    7230.13692     5882.0000      773.0740     1219.9700        0.6960
    7232.26805     5933.0000      785.8505     1297.4525        0.7020
    7234.41870     5984.0000      798.5897     1362.8488        0.7090
    7236.58888     6045.0000      811.3663     1415.3312        0.7150
    7238.77392     6089.0000      821.1427     1448.8138        0.7210
    7240.98324     6140.0000      828.9193     1464.2963        0.7270
    7243.20744     6183.0000      834.6585     1465.6925        0.7340
    7245.45596     6240.0000      841.4350     1459.1750        0.7400
    7247.71940     6307.0000      849.2115     1454.6575        0.7460
    7250.00248     6334.0000      849.9880     1443.1400        0.7520
    7252.30524     6390.0000      855.7273     1449.5363        0.7590
    7254.62768     6436.0000      859.5037     1466.0187        0.7650
    7256.96510     6494.0000      865.2803     1487.5013        0.7710
    7259.32696     6550.0000      873.0567     1501.9838        0.7770
    7261.70385     6602.0000      878.7960     1505.3800        0.7840
    7264.10049     6656.0000      884.5725     1502.8625        0.7900
    7266.52165     6677.0000      886.3490     1496.3450        0.7960
    7268.95315     6727.0000      892.1255     1497.8275        0.8020
    7271.40919     6795.0000      901.8647     1502.2238        0.8090
    7273.88508     6831.0000      908.6413     1492.7062        0.8150
    7276.37610     6871.0000      917.4177     1485.1888        0.8210
    7278.89173     6939.0000      930.1943     1495.6713        0.8270
    7281.42253     7006.0000      942.9335     1512.0675        0.8340
    7283.97324     7064.0000      957.7100     1521.5500        0.8400
    7286.53916     7128.0000      974.4865     1534.0325        0.8460
    7289.12978     7171.0000      989.2630     1540.5150        0.8520
    7291.73563     7224.0000     1004.0023     1561.9113        0.8590
    7294.36149     7287.0000     1019.7787     1603.3937        0.8650
    7297.00737     7352.0000     1035.5552     1666.8763        0.8710
    7299.67329     7395.0000     1047.3318     1733.3588        0.8770
    7302.35453     7466.0000     1061.0710     1800.7550        0.8840
    7305.05585     7516.0000     1071.8475     1858.2375        0.8900
    7307.78204     7601.0000     1085.6240     1907.7200        0.8960
    7310.51884     7643.0000     1093.4005     1938.2025        0.9020
    7313.28055     7681.0000     1098.1398     1955.5988        0.9090
    7316.05767     7749.0000     1107.9162     1971.0812        0.9150
    7318.85498     7825.0000     1118.6927     1993.5638        0.9210
    7321.67251     7881.0000     1127.4693     2015.0463        0.9270
    7324.51027     7959.0000     1141.2085     2041.4425        0.9340
    7327.36352     8017.0000     1153.9850     2068.9250        0.9400
    7330.23705     8064.0000     1165.7615     2091.4075        0.9460
    7333.13088     8138.0000     1180.5380     2124.8900        0.9520
    7336.04504     8192.0000     1193.2773     2162.2863        0.9590
    7338.97477     8206.0000     1201.0538     2188.7688        0.9650
    7341.92487     8250.0000     1212.8302     2210.2512        0.9710
    7344.89536     8321.0000     1228.6067     2224.7337        0.9770
    7347.88147     8391.0000     1245.3460     2223.1300        0.9840
    7350.88803     8431.0000     1256.1225     2207.6125        0.9900
    7353.91504     8471.0000     1264.8990     2194.0950        0.9960
    7356.96253     8526.0000     1276.6755     2186.5775        1.0020
    7360.02574     8591.0000     1289.4147     2185.9738        1.0090
    7363.10948     8634.0000     1299.1913     2185.4563        1.0150
    7366.21377     8689.0000     1313.9678     2202.9387        1.0210
    7369.33383     8730.0000     1323.7442     2226.4212        1.0270
    7372.47449     8763.0000     1334.4835     2266.8175        1.0340
    7375.63577     8843.0000     1349.2600     2332.3000        1.0400
    7378.81289     8872.0000     1357.0365     2404.7825        1.0460
    7382.01068     8942.0000     1369.8130     2489.2650        1.0520
    7385.22916     9027.0000     1384.5522     2574.6613        1.0590
    7388.46354     9088.0000     1395.3287     2625.1438        1.0650
    7391.71866     9138.0000     1407.1053     2647.6262        1.0710
    7394.99454     9197.0000     1417.8818     2662.1087        1.0770
    7398.28639     9250.0000     1431.6210     2676.5050        1.0840
    7401.59905     9300.0000     1444.3975     2696.9875        1.0900
    7404.93254     9368.0000     1461.1740     2730.4700        1.0960
    7408.28207     9445.0000     1478.9505     2765.9525        1.1020
    7411.65248     9518.0000     1495.6898     2801.3488        1.1090
    7415.03896     9585.0000     1513.4662     2834.8313        1.1150
    7418.44638     9638.0000     1530.2427     2866.3137        1.1210
    7421.87475     9694.0000     1547.0193     2905.7962        1.1270
    7425.31926     9781.0000     1568.7585     2958.1925        1.1340
    7428.78478     9816.0000     1581.5350     3001.6750        1.1400
    7432.26648     9892.0000     1601.3115     3050.1575        1.1460
    7435.76924     9958.0000     1619.0880     3083.6400        1.1520
    7439.29307    10027.0000     1635.8273     3111.0363        1.1590
    7442.83316    10069.0000     1648.6037     3122.5188        1.1650
    7446.38952    10119.0000     1663.3802     3123.0012        1.1710
    7449.97189    10184.0000     1679.1568     3134.4837        1.1770
    7453.57058    10181.0000     1685.8960     3133.8800        1.1840
    7457.18562    10380.0000     1723.6725     3206.3625        1.1900
    7460.82188    10379.0000     1729.4490     3222.8450        1.1960
    7464.47453     9532.0000     1594.2255     3057.3275        1.2020
    7468.14845    10490.0000     1754.9648     3309.7238        1.2090
    7471.84368    10539.0000     1767.7413     3360.2063        1.2150
    7475.55537    10571.0000     1777.5177     3408.6887        1.2210
    7479.28841    10627.0000     1791.2942     3461.1712        1.2270
    7483.03795    10655.0000     1803.0335     3504.5675        1.2340
    7486.80890     9297.0000     1581.8100     3096.0500        1.2400
    7490.59640    10822.0000     1845.5865     3643.5325        1.2460
    7494.40535    10854.0000     1860.3630     3694.0150        1.2520
    7498.23090    10887.0000     1875.1022     3729.4113        1.2590
    7502.07307    10932.0000     1890.8788     3758.8938        1.2650
    7505.94166    10967.0000     1903.6553     3780.3762        1.2710
    7509.82202    10206.0000     1780.4317     3618.8587        1.2770
    7513.72396    11123.0000     1946.1710     3867.2550        1.2840
    7517.64752    11165.0000     1959.9475     3903.7375        1.2900
    7521.58780    10025.0000     1769.7240     3462.2200        1.2960
    7525.54975    11366.0000     2011.5005     4028.7025        1.3020
    7529.52848    11418.0000     2029.2397     4063.0988        1.3090
    7533.52402    11461.0000     2045.0162     4092.5813        1.3150
    7537.54129    11514.0000     2059.7928     4130.0638        1.3210
    7541.58034    11578.0000     2078.5693     4177.5463        1.3270
    7545.63625    11631.0000     2094.3085     4220.9425        1.3340
    7549.70907    11701.0000     2115.0850     4274.4250        1.3400
    7553.80373    11757.0000     2130.8615     4316.9075        1.3460
    7557.91534    11830.0000     2152.6380     4353.3900        1.3520
    7562.04392    11857.0000     2167.3773     4377.7863        1.3590
    7566.19441    11924.0000     2186.1537     4414.2688        1.3650
    7570.36686    11993.0000     2206.9302     4464.7513        1.3710
    7574.55141    12026.0000     2224.7067     4516.2338        1.3770
    7578.76290    12102.0000     2247.4460     4598.6300        1.3840
    7582.98655    12158.0000     2269.2225     4677.1125        1.3900
    7587.23224    12195.0000     2286.9990     4738.5950        1.3960
    7591.50002    12240.0000     2305.7755     4796.0775        1.4020
    7595.78001    12299.0000     2325.5147     4849.4738        1.4090
    7600.08213    12339.0000     2342.2913     4888.9563        1.4150
    7604.40642    12378.0000     2359.0678     4931.4388        1.4210
    7608.74793    12443.0000     2380.8443     4989.9213        1.4270
    7613.10670    12491.0000     2398.5835     5047.3175        1.4340
    7617.48772    12542.0000     2418.3600     5101.8000        1.4400
    7621.88604    12565.0000     2432.1365     5140.2825        1.4460
    7626.30168    12638.0000     2454.9130     5189.7650        1.4520
    7630.73965    12678.0000     2471.6523     5231.1613        1.4590
    7635.19499    12692.0000     2482.4288     5267.6438        1.4650
    7639.66773    12742.0000     2501.2052     5328.1263        1.4710
    7644.15790    12829.0000     2526.9817     5399.6088        1.4770
    7648.67049    12872.0000     2543.7210     5460.0050        1.4840
    7653.20553    12928.0000     2563.4975     5514.4875        1.4900
    7657.75309    12978.0000     2582.2740     5566.9700        1.4960
    7662.32315    13041.0000     2605.0505     5630.4525        1.5020
    7666.91076    13113.0000     2630.7897     5688.8488        1.5090
    7671.52093    13190.0000     2656.5662     5755.3313        1.5150
    7676.14869    13231.0000     2678.3427     5805.8138        1.5210
    7680.79407    13315.0000     2706.1193     5876.2963        1.5270
    7685.45710    13406.0000     2735.8585     5949.6925        1.5340
    7690.14279    13480.0000     2762.6350     6023.1750        1.5400
    7694.84617    13557.0000     2790.4115     6100.6575        1.5460
    7699.56726    13604.0000     2812.1880     6170.1400        1.5520
    7704.30609    13660.0000     2835.9273     6242.5363        1.5590
    7709.06770    13687.0000     2854.7038     6300.0188        1.5650
    7713.84709    13731.0000     2876.4803     6372.5013        1.5710
    7718.64429    13748.0000     2891.2568     6427.9838        1.5770
    7723.45932    13800.0000     2914.9960     6499.3800        1.5840
    7728.29724    13841.0000     2934.7725     6554.8625        1.5900
    7733.15304    13864.0000     2950.5490     6602.3450        1.5960
    7738.02675    13904.0000     2971.3255     6658.8275        1.6020
    7742.91839    13949.0000     2992.0648     6719.2238        1.6090
    7747.83302    13982.0000     3010.8412     6776.7063        1.6150
    7752.76563    14043.0000     3035.6177     6846.1888        1.6210
    7757.71624    14118.0000     3064.3942     6925.6713        1.6270
    7762.68488    14150.0000     3083.1335     6984.0675        1.6340
    7767.67157    14199.0000     3104.9100     7052.5500        1.6400
    7772.68139    14238.0000     3125.6865     7122.0325        1.6460
    7777.70425    14294.0000     3149.4630     7201.5150        1.6520
    7782.75029    14355.0000     3175.2022     7276.9113        1.6590
    7787.81954    14408.0000     3200.9788     7355.3938        1.6650
    7792.90190    14463.0000     3225.7553     7431.8763        1.6710
    7798.00245    14511.0000     3250.5318     7508.3588        1.6770
    7803.12629    14575.0000     3278.2710     7588.7550        1.6840
    7808.26838    14612.0000     3301.0475     7658.2375        1.6900
    7813.42874    14669.0000     3328.8240     7742.7200        1.6960
    7818.60738    14724.0000     3356.6005     7820.2025        1.7020
    7823.80435    14801.0000     3388.3398     7916.5988        1.7090
    7829.01964    14848.0000     3413.1163     7990.0813        1.7150
    7834.25840    14904.0000     3440.8927     8070.5638        1.7210
    7839.51554    14953.0000     3468.6692     8154.0463        1.7270
    7844.78599    14998.0000     3492.4085     8227.4425        1.7340
    7850.07998    15037.0000     3517.1850     8304.9250        1.7400
    7855.39243    15074.0000     3539.9615     8376.4075        1.7460
    7860.72336    15116.0000     3562.7380     8453.8900        1.7520
    7866.07279    15166.0000     3589.4772     8531.2862        1.7590
    7871.44587    15215.0000     3616.2537     8615.7687        1.7650
    7876.83239    15263.0000     3642.0302     8699.2512        1.7710
    7882.24260    15326.0000     3670.8068     8788.7337        1.7770
    7887.66629    15395.0000     3702.5460     8882.1300        1.7840
    7893.11374    15473.0000     3737.3225     8984.6125        1.7900
    7898.57983    15520.0000     3762.0990     9073.0950        1.7960
    7904.06460    15553.0000     3786.8755     9149.5775        1.8020
    7909.56807    15604.0000     3814.6148     9234.9737        1.8090
    7915.08511    15654.0000     3842.3913     9332.4562        1.8150
    7920.62604    15701.0000     3869.1678     9418.9387        1.8210
    7926.19088    15724.0000     3891.9443     9494.4212        1.8270
    7931.76937    15775.0000     3921.6835     9591.8175        1.8340
    7937.36667    15806.0000     3946.4600     9673.3000        1.8400
    7942.98282    15850.0000     3974.2365     9764.7825        1.8460
    7948.61782    15891.0000     4002.0130     9849.2650        1.8520
    7954.27686    15941.0000     4030.7523     9945.6612        1.8590
    7959.94966    15995.0000     4062.5287    10048.1437        1.8650
    7965.64138    16014.0000     4084.3052    10123.6262        1.8710
    7971.35723    16042.0000     4109.0818    10200.1087        1.8770
