XDAC V1.4 Datafile V1
"Fe_lepidocrocite.100" created on 11/3/2011 at 2:36:23 PM on X-23A2
Diffraction element= Si (311).  Ring energy= 2.80 GeV
E0= 7112.00
NUM_REGIONS= 4
SRB= -200 -20 30 60 15k
SRSS= 10 0.25 0.05k 0.05k
SPP= 0.5 0.5 0.5 0.125k
Settling time= 0.00


Offsets= 0.00 37.25 86.25 0.00
Gains= 8.00 8.00 9.00 1.00
gamma-FeOOH on tape


--------------------------------------------------------------------------------
        Energy            I0            It            Ir       IntTime
    6912.00137     4584.0000      673.3750     1351.8750        0.5000
    6921.99811     4601.0000      683.3750     1375.8750        0.5000
    6931.99952     4616.0000      691.3750     1397.8750        0.5000
    6942.00100     4627.0000      700.3750     1419.8750        0.5000
    6951.99793     4635.0000      709.3750     1440.8750        0.5000
    6961.99916     4633.0000      715.3750     1457.8750        0.5000
    6972.00005     4611.0000      720.3750     1470.8750        0.5000
    6982.00050     4621.0000      730.3750     1494.8750        0.5000
    6992.00035     4623.0000      739.3750     1517.8750        0.5000
    7001.99948     4628.0000      748.3750     1538.8750        0.5000
    7011.99777     4615.0000      753.3750     1553.8750        0.5000
    7021.99962     4592.0000      757.3750     1563.8750        0.5000
    7032.00039     4607.0000      767.3750     1585.8750        0.5000
    7041.99992     4594.0000      772.3750     1597.8750        0.5000
    7051.99811     4595.0000      780.3750     1617.8750        0.5000
    7061.99940     4614.0000      790.3750     1646.8750        0.5000
    7071.99909     4639.0000      803.3750     1679.8750        0.5000
    7082.00166     4637.0000      811.3750     1699.8750        0.5000
    7091.99780     4638.0000      818.3750     1719.8750        0.5000
    7092.25090     4635.0000      818.3750     1717.8750        0.5000
    7092.49942     4637.0000      819.3750     1718.8750        0.5000
    7092.74794     4628.0000      817.3750     1716.8750        0.5000
    7093.00108     4636.0000      819.3750     1720.8750        0.5000
    7093.24962     4632.0000      819.3750     1718.8750        0.5000
    7093.49818     4632.0000      819.3750     1718.8750        0.5000
    7093.75135     4643.0000      820.3750     1724.8750        0.5000
    7093.99992     4623.0000      818.3750     1716.8750        0.5000
    7094.24851     4633.0000      819.3750     1720.8750        0.5000
    7094.50171     4627.0000      819.3750     1719.8750        0.5000
    7094.75031     4628.0000      818.3750     1719.8750        0.5000
    7094.99893     4629.0000      819.3750     1719.8750        0.5000
    7095.25216     4637.0000      821.3750     1723.8750        0.5000
    7095.50080     4630.0000      820.3750     1722.8750        0.5000
    7095.74944     4637.0000      821.3750     1724.8750        0.5000
    7095.99810     4628.0000      820.3750     1720.8750        0.5000
    7096.25137     4635.0000      821.3750     1723.8750        0.5000
    7096.50005     4618.0000      819.3750     1718.8750        0.5000
    7096.74874     4626.0000      820.3750     1721.8750        0.5000
    7097.00204     4627.0000      820.3750     1722.8750        0.5000
    7097.25075     4629.0000      821.3750     1723.8750        0.5000
    7097.49947     4623.0000      820.3750     1721.8750        0.5000
    7097.74820     4630.0000      821.3750     1724.8750        0.5000
    7098.00154     4632.0000      821.3750     1726.8750        0.5000
    7098.25029     4619.0000      820.3750     1720.8750        0.5000
    7098.49905     4625.0000      821.3750     1722.8750        0.5000
    7098.74782     4638.0000      824.3750     1727.8750        0.5000
    7099.00121     4626.0000      822.3750     1724.8750        0.5000
    7099.25000     4621.0000      821.3750     1721.8750        0.5000
    7099.49880     4626.0000      822.3750     1725.8750        0.5000
    7099.75221     4624.0000      822.3750     1723.8750        0.5000
    7100.00103     4621.0000      822.3750     1723.8750        0.5000
    7100.24986     4627.0000      823.3750     1726.8750        0.5000
    7100.49871     4627.0000      823.3750     1724.8750        0.5000
    7100.75216     4619.0000      821.3750     1722.8750        0.5000
    7101.00103     4622.0000      822.3750     1724.8750        0.5000
    7101.24990     4620.0000      822.3750     1724.8750        0.5000
    7101.49878     4644.0000      826.3750     1733.8750        0.5000
    7101.75228     4622.0000      823.3750     1725.8750        0.5000
    7102.00118     4619.0000      822.3750     1724.8750        0.5000
    7102.25009     4624.0000      823.3750     1726.8750        0.5000
    7102.49901     4623.0000      823.3750     1724.8750        0.5000
    7102.74795     4625.0000      823.3750     1728.8750        0.5000
    7103.00150     4630.0000      826.3750     1729.8750        0.5000
    7103.25045     4618.0000      824.3750     1725.8750        0.5000
    7103.49941     4620.0000      823.3750     1725.8750        0.5000
    7103.74839     4618.0000      824.3750     1725.8750        0.5000
    7104.00198     4620.0000      824.3750     1726.8750        0.5000
    7104.25098     4628.0000      826.3750     1726.8750        0.5000
    7104.49998     4632.0000      826.3750     1729.8750        0.5000
    7104.74899     4607.0000      822.3750     1718.8750        0.5000
    7104.99802     4632.0000      827.3750     1726.8750        0.5000
    7105.25166     4626.0000      826.3750     1727.8750        0.5000
    7105.50071     4629.0000      827.3750     1727.8750        0.5000
    7105.74976     4625.0000      826.3750     1726.8750        0.5000
    7105.99883     4613.0000      824.3750     1720.8750        0.5000
    7106.24790     4621.0000      826.3750     1722.8750        0.5000
    7106.50160     4602.0000      822.3750     1715.8750        0.5000
    7106.75069     4608.0000      823.3750     1717.8750        0.5000
    7106.99980     4620.0000      826.3750     1721.8750        0.5000
    7107.24891     4609.0000      824.3750     1716.8750        0.5000
    7107.49804     4622.0000      826.3750     1719.8750        0.5000
    7107.75179     4618.0000      826.3750     1719.8750        0.5000
    7108.00093     4620.0000      826.3750     1717.8750        0.5000
    7108.25009     4616.0000      827.3750     1715.8750        0.5000
    7108.49926     4612.0000      825.3750     1712.8750        0.5000
    7108.74843     4614.0000      826.3750     1711.8750        0.5000
    7109.00223     4610.0000      825.3750     1707.8750        0.5000
    7109.25143     4608.0000      825.3750     1707.8750        0.5000
    7109.50064     4611.0000      825.3750     1704.8750        0.5000
    7109.74985     4599.0000      824.3750     1697.8750        0.5000
    7109.99908     4609.0000      826.3750     1698.8750        0.5000
    7110.24832     4620.0000      828.3750     1699.8750        0.5000
    7110.50218     4598.0000      824.3750     1683.8750        0.5000
    7110.75144     4601.0000      824.3750     1675.8750        0.5000
    7111.00071     4606.0000      825.3750     1668.8750        0.5000
    7111.24998     4606.0000      824.3750     1653.8750        0.5000
    7111.49927     4594.0000      823.3750     1634.8750        0.5000
    7111.74857     4606.0000      825.3750     1616.8750        0.5000
    7111.99788     4603.0000      825.3750     1586.8750        0.5000
    7112.25181     4603.0000      823.3750     1539.8750        0.5000
    7112.50114     4590.0000      821.3750     1482.8750        0.5000
    7112.75048     4607.0000      823.3750     1448.8750        0.5000
    7112.99983     4595.0000      821.3750     1412.8750        0.5000
    7113.24919     4601.0000      820.3750     1391.8750        0.5000
    7113.49856     4615.0000      821.3750     1373.8750        0.5000
    7113.74794     4596.0000      815.3750     1345.8750        0.5000
    7114.00194     4603.0000      814.3750     1326.8750        0.5000
    7114.25134     4595.0000      813.3750     1310.8750        0.5000
    7114.50075     4606.0000      816.3750     1298.8750        0.5000
    7114.75017     4585.0000      813.3750     1279.8750        0.5000
    7114.99960     4589.0000      813.3750     1268.8750        0.5000
    7115.24904     4601.0000      815.3750     1258.8750        0.5000
    7115.49849     4587.0000      813.3750     1245.8750        0.5000
    7115.74795     4595.0000      815.3750     1242.8750        0.5000
    7116.00204     4573.0000      813.3750     1232.8750        0.5000
    7116.25152     4598.0000      818.3750     1236.8750        0.5000
    7116.50101     4593.0000      816.3750     1233.8750        0.5000
    7116.75052     4595.0000      816.3750     1229.8750        0.5000
    7117.00003     4582.0000      814.3750     1222.8750        0.5000
    7117.24955     4590.0000      814.3750     1220.8750        0.5000
    7117.49908     4581.0000      813.3750     1212.8750        0.5000
    7117.74862     4589.0000      813.3750     1209.8750        0.5000
    7117.99817     4594.0000      813.3750     1200.8750        0.5000
    7118.24773     4572.0000      809.3750     1178.8750        0.5000
    7118.50193     4590.0000      812.3750     1167.8750        0.5000
    7118.75151     4581.0000      809.3750     1143.8750        0.5000
    7119.00110     4583.0000      809.3750     1128.8750        0.5000
    7119.25070     4585.0000      809.3750     1110.8750        0.5000
    7119.50031     4576.0000      807.3750     1088.8750        0.5000
    7119.74994     4587.0000      808.3750     1075.8750        0.5000
    7119.99957     4583.0000      807.3750     1051.8750        0.5000
    7120.24921     4584.0000      805.3750     1031.8750        0.5000
    7120.49886     4582.0000      802.3750     1006.8750        0.5000
    7120.74853     4574.0000      799.3750      978.8750        0.5000
    7120.99820     4580.0000      797.3750      959.8750        0.5000
    7121.24788     4577.0000      794.3750      935.8750        0.5000
    7121.50220     4582.0000      792.3750      917.8750        0.5000
    7121.75190     4564.0000      784.3750      892.8750        0.5000
    7122.00161     4570.0000      780.3750      872.8750        0.5000
    7122.25134     4590.0000      778.3750      857.8750        0.5000
    7122.50107     4568.0000      767.3750      832.8750        0.5000
    7122.75082     4557.0000      756.3750      805.8750        0.5000
    7123.00057     4556.0000      746.3750      786.8750        0.5000
    7123.25033     4564.0000      739.3750      770.8750        0.5000
    7123.50011     4564.0000      729.3750      750.8750        0.5000
    7123.74989     4557.0000      717.3750      730.8750        0.5000
    7123.99968     4550.0000      706.3750      710.8750        0.5000
    7124.24949     4557.0000      698.3750      696.8750        0.5000
    7124.49930     4554.0000      690.3750      683.8750        0.5000
    7124.74913     4555.0000      682.3750      671.8750        0.5000
    7124.99896     4555.0000      676.3750      659.8750        0.5000
    7125.24881     4559.0000      667.3750      647.8750        0.5000
    7125.49866     4551.0000      659.3750      632.8750        0.5000
    7125.74852     4550.0000      650.3750      622.8750        0.5000
    7125.99840     4547.0000      641.3750      608.8750        0.5000
    7126.24828     4546.0000      631.3750      594.8750        0.5000
    7126.49818     4484.0000      610.3750      575.8750        0.5000
    7126.74808     4435.0000      592.3750      548.8750        0.5000
    7126.99800     4520.0000      590.3750      542.8750        0.5000
    7127.24792     4532.0000      582.3750      532.8750        0.5000
    7127.49786     4540.0000      572.3750      520.8750        0.5000
    7127.74780     4535.0000      557.3750      502.8750        0.5000
    7127.99776     4533.0000      541.3750      482.8750        0.5000
    7128.24772     4527.0000      527.3750      467.8750        0.5000
    7128.49770     4530.0000      510.3750      447.8750        0.5000
    7128.74769     4530.0000      494.3750      427.8750        0.5000
    7129.00231     4533.0000      479.3750      408.8750        0.5000
    7129.24769     4526.0000      467.3750      394.8750        0.5000
    7129.49770     4518.0000      455.3750      380.8750        0.5000
    7129.74773     4529.0000      448.3750      371.8750        0.5000
    7129.99776     4532.0000      442.3750      361.8750        0.5000
    7130.24781     4530.0000      436.3750      352.8750        0.5000
    7130.49787     4525.0000      430.3750      345.8750        0.5000
    7130.74793     4466.0000      421.3750      337.8750        0.5000
    7130.99801     4417.0000      413.3750      324.8750        0.5000
    7131.24810     4489.0000      416.3750      323.8750        0.5000
    7131.49819     4496.0000      414.3750      321.8750        0.5000
    7131.74830     4506.0000      413.3750      320.8750        0.5000
    7131.99842     4505.0000      411.3750      318.8750        0.5000
    7132.24854     4500.0000      409.3750      318.8750        0.5000
    7132.49868     4502.0000      409.3750      318.8750        0.5000
    7132.74883     4507.0000      409.3750      321.8750        0.5000
    7132.99898     4500.0000      410.3750      323.8750        0.5000
    7133.24915     4499.0000      412.3750      329.8750        0.5000
    7133.49933     4506.0000      416.3750      335.8750        0.5000
    7133.74951     4502.0000      419.3750      341.8750        0.5000
    7133.99971     4498.0000      422.3750      346.8750        0.5000
    7134.24992     4496.0000      425.3750      352.8750        0.5000
    7134.50013     4493.0000      428.3750      358.8750        0.5000
    7134.75036     4493.0000      430.3750      363.8750        0.5000
    7135.00060     4501.0000      435.3750      369.8750        0.5000
    7135.25085     4505.0000      438.3750      374.8750        0.5000
    7135.50110     4494.0000      440.3750      379.8750        0.5000
    7135.75137     4498.0000      442.3750      384.8750        0.5000
    7136.00165     4500.0000      444.3750      388.8750        0.5000
    7136.25194     4504.0000      447.3750      393.8750        0.5000
    7136.50223     4509.0000      449.3750      395.8750        0.5000
    7136.74791     4500.0000      449.3750      396.8750        0.5000
    7136.99822     4505.0000      451.3750      399.8750        0.5000
    7137.24855     4504.0000      453.3750      401.8750        0.5000
    7137.49889     4512.0000      455.3750      404.8750        0.5000
    7137.74924     4495.0000      454.3750      403.8750        0.5000
    7137.99960     4503.0000      458.3750      407.8750        0.5000
    7138.24996     4500.0000      459.3750      408.8750        0.5000
    7138.50034     4505.0000      461.3750      409.8750        0.5000
    7138.75073     4498.0000      462.3750      410.8750        0.5000
    7139.00113     4500.0000      464.3750      411.8750        0.5000
    7139.25154     4493.0000      465.3750      412.8750        0.5000
    7139.50195     4502.0000      468.3750      411.8750        0.5000
    7139.74774     4504.0000      471.3750      412.8750        0.5000
    7139.99818     4505.0000      473.3750      413.8750        0.5000
    7140.24863     4509.0000      475.3750      415.8750        0.5000
    7140.49909     4499.0000      477.3750      413.8750        0.5000
    7140.74956     4505.0000      480.3750      415.8750        0.5000
    7141.00004     4504.0000      482.3750      415.8750        0.5000
    7141.25052     4505.0000      484.3750      417.8750        0.5000
    7141.50102     4507.0000      486.3750      418.8750        0.5000
    7141.75153     4500.0000      488.3750      418.8750        0.5000
    7143.07847     4489.0000      497.3750      424.8750        0.5000
    7144.17827     4500.0000      505.3750      433.8750        0.5000
    7145.29220     4511.0000      514.3750      440.8750        0.5000
    7146.42953     4500.0000      517.3750      445.8750        0.5000
    7147.58565     4484.0000      517.3750      442.8750        0.5000
    7148.75592     4497.0000      522.3750      438.8750        0.5000
    7149.94962     4494.0000      529.3750      437.8750        0.5000
    7151.16214     4485.0000      539.3750      438.8750        0.5000
    7152.39348     4402.0000      541.3750      439.8750        0.5000
    7153.64366     4492.0000      564.3750      452.8750        0.5000
    7154.91268     4488.0000      573.3750      457.8750        0.5000
    7156.20055     4493.0000      581.3750      465.8750        0.5000
    7157.50730     4468.0000      583.3750      466.8750        0.5000
    7158.83292     4514.0000      593.3750      480.8750        0.5000
    7160.18208     4501.0000      593.3750      481.8750        0.5000
    7161.54549     4505.0000      596.3750      484.8750        0.5000
    7162.92782     4510.0000      598.3750      487.8750        0.5000
    7164.32907     4516.0000      599.3750      490.8750        0.5000
    7165.75392     4533.0000      599.3750      493.8750        0.5000
    7167.19306     4535.0000      597.3750      493.8750        0.5000
    7168.65117     4535.0000      591.3750      491.8750        0.5000
    7170.13291     4542.0000      586.3750      488.8750        0.5000
    7171.62898     4536.0000      579.3750      484.8750        0.5000
    7173.52171     4578.0000      573.3005      484.7025        0.5020
    7175.06056     4643.0000      573.0398      488.0987        0.5090
    7176.62310     4709.0000      572.8162      494.5813        0.5150
    7178.20002     4771.0000      573.5928      503.0638        0.5210
    7179.79600     4824.0000      575.3692      513.5462        0.5270
    7181.41573     4902.0000      582.1085      525.9425        0.5340
    7183.04987     4968.0000      588.8850      534.4250        0.5400
    7184.70312     5026.0000      595.6615      541.9075        0.5460
    7186.38015     5097.0000      606.4380      549.3900        0.5520
    7188.07164     5157.0000      618.1772      554.7862        0.5590
    7189.78228     5215.0000      628.9538      556.2687        0.5650
    7191.51676     5293.0000      642.7302      561.7513        0.5710
    7193.26573     5342.0000      653.5068      561.2337        0.5770
    7195.03389     5417.0000      668.2460      564.6300        0.5840
    7196.82126     5474.0000      680.0225      571.1125        0.5900
    7198.62785     5534.0000      689.7990      584.5950        0.5960
    7200.45368     5591.0000      700.5755      603.0775        0.6020
    7202.30344     5652.0000      711.3148      623.4737        0.6090
    7204.16778     5719.0000      722.0912      646.9562        0.6150
    7206.05141     5774.0000      730.8678      670.4388        0.6210
    7207.94966     5834.0000      740.6443      692.9212        0.6270
    7209.87190     5894.0000      751.3835      703.3175        0.6340
    7211.81348     5951.0000      760.1600      701.8000        0.6400
    7213.77441     6022.0000      770.9365      687.2825        0.6460
    7215.75000     6072.0000      781.7130      661.7650        0.6520
    7217.74968     6138.0000      791.4523      639.1612        0.6590
    7219.76875     6200.0000      802.2287      626.6437        0.6650
    7221.80255     6239.0000      810.0053      622.1263        0.6710
    7223.85577     6324.0000      823.7817      636.6087        0.6770
    7225.93315     6383.0000      833.5210      663.0050        0.6840
    7228.02529     6427.0000      844.2975      697.4875        0.6900
    7230.13692     6487.0000      858.0740      737.9700        0.6960
    7232.26805     6547.0000      871.8505      783.4525        0.7020
    7234.41870     6617.0000      887.5897      824.8487        0.7090
    7236.58888     6674.0000      900.3663      859.3312        0.7150
    7238.77392     6731.0000      911.1427      879.8138        0.7210
    7240.98324     6788.0000      920.9193      889.2962        0.7270
    7243.20744     6828.0000      927.6585      888.6925        0.7340
    7245.45596     6909.0000      937.4350      887.1750        0.7400
    7247.71940     6942.0000      940.2115      877.6575        0.7460
    7250.00248     6985.0000      942.9880      873.1400        0.7520
    7252.30524     7054.0000      949.7273      877.5362        0.7590
    7254.62768     7100.0000      953.5037      885.0187        0.7650
    7256.96510     7158.0000      960.2803      898.5013        0.7710
    7259.32696     7212.0000      966.0567      906.9837        0.7770
    7261.70385     7277.0000      973.7960      909.3800        0.7840
    7264.10049     7318.0000      977.5725      906.8625        0.7900
    7266.52165     7378.0000      985.3490      906.3450        0.7960
    7268.95315     7433.0000      991.1255      906.8275        0.8020
    7271.40919     7500.0000     1000.8647      909.2237        0.8090
    7273.88508     7558.0000     1010.6413      905.7062        0.8150
    7276.37610     7613.0000     1022.4177      901.1888        0.8210
    7278.89173     7668.0000     1033.1943      904.6712        0.8270
    7281.42253     7745.0000     1048.9335      915.0675        0.8340
    7283.97324     7800.0000     1063.7100      920.5500        0.8400
    7286.53916     7845.0000     1078.4865      923.0325        0.8460
    7289.12978     7923.0000     1098.2630      933.5150        0.8520
    7291.73563     7961.0000     1112.0023      942.9112        0.8590
    7294.36149     8018.0000     1128.7787      966.3937        0.8650
    7297.00737     8091.0000     1145.5552     1006.8763        0.8710
    7299.67329     8158.0000     1161.3318     1046.3588        0.8770
    7302.35453     8233.0000     1177.0710     1088.7550        0.8840
    7305.05585     8294.0000     1189.8475     1123.2375        0.8900
    7307.78204     8366.0000     1202.6240     1152.7200        0.8960
    7310.51884     8426.0000     1211.4005     1172.2025        0.9020
    7313.28055     8506.0000     1223.1398     1187.5988        0.9090
    7316.05767     8556.0000     1229.9162     1195.0812        0.9150
    7318.85498     8621.0000     1238.6927     1205.5638        0.9210
    7321.67251     8676.0000     1248.4693     1218.0463        0.9270
    7324.51027     8780.0000     1267.2085     1238.4425        0.9340
    7327.36352     8831.0000     1277.9850     1251.9250        0.9400
    7330.23705     8863.0000     1287.7615     1263.4075        0.9460
    7333.13088     8946.0000     1305.5380     1283.8900        0.9520
    7336.04504     9019.0000     1319.2773     1308.2863        0.9590
    7338.97477     9053.0000     1332.0538     1324.7687        0.9650
    7341.92487     9123.0000     1347.8302     1343.2513        0.9710
    7344.89536     9198.0000     1365.6067     1349.7338        0.9770
    7347.88147     9248.0000     1379.3460     1344.1300        0.9840
    7350.88803     9307.0000     1394.1225     1337.6125        0.9900
    7353.91504     9360.0000     1405.8990     1332.0950        0.9960
    7356.96253     9414.0000     1416.6755     1323.5775        1.0020
    7360.02574     9464.0000     1427.4147     1320.9738        1.0090
    7363.10948     9506.0000     1438.1913     1321.4562        1.0150
    7366.21377     9570.0000     1452.9678     1328.9388        1.0210
    7369.33383     9609.0000     1465.7442     1345.4213        1.0270
    7372.47449     9685.0000     1481.4835     1372.8175        1.0340
    7375.63577     9740.0000     1495.2600     1409.3000        1.0400
    7378.81289     9805.0000     1508.0365     1455.7825        1.0460
    7382.01068     9866.0000     1519.8130     1508.2650        1.0520
    7385.22916     9945.0000     1533.5522     1554.6613        1.0590
    7388.46354    10000.0000     1544.3287     1584.1437        1.0650
    7391.71866    10060.0000     1557.1053     1599.6263        1.0710
    7394.99454    10118.0000     1568.8818     1607.1088        1.0770
    7398.28639    10185.0000     1584.6210     1617.5050        1.0840
    7401.59905    10249.0000     1600.3975     1629.9875        1.0900
    7404.93254    10322.0000     1618.1740     1649.4700        1.0960
    7408.28207    10378.0000     1632.9505     1666.9525        1.1020
    7411.65248    10450.0000     1651.6898     1687.3488        1.1090
    7415.03896    10521.0000     1670.4662     1707.8312        1.1150
    7418.44638    10573.0000     1686.2427     1725.3138        1.1210
    7421.87475    10641.0000     1708.0193     1749.7963        1.1270
    7425.31926    10715.0000     1727.7585     1779.1925        1.1340
    7428.78478    10770.0000     1744.5350     1808.6750        1.1400
    7432.26648    10859.0000     1767.3115     1840.1575        1.1460
    7435.76924    10913.0000     1783.0880     1858.6400        1.1520
    7439.29307    10988.0000     1802.8273     1875.0363        1.1590
    7442.83316    11055.0000     1818.6037     1882.5187        1.1650
    7446.38952    11104.0000     1834.3802     1885.0013        1.1710
    7449.97189    11142.0000     1847.1568     1885.4838        1.1770
    7453.57058    11188.0000     1861.8960     1893.8800        1.1840
    7457.18562    11391.0000     1901.6725     1937.3625        1.1900
    7460.82188    11396.0000     1907.4490     1945.8450        1.1960
    7464.47453    10857.0000     1822.2255     1931.3275        1.2020
    7468.14845    11560.0000     1943.9648     2006.7238        1.2090
    7471.84368    11591.0000     1953.7413     2034.2062        1.2150
    7475.55537    11616.0000     1962.5177     2059.6887        1.2210
    7479.28841    11668.0000     1977.2942     2091.1712        1.2270
    7483.03795    11721.0000     1993.0335     2121.5675        1.2340
    7486.80890    10205.0000     1743.8100     1868.0500        1.2400
    7490.59640    11886.0000     2039.5865     2200.5325        1.2460
    7494.40535    11906.0000     2052.3630     2228.0150        1.2520
    7498.23090    11966.0000     2071.1022     2256.4113        1.2590
    7502.07307    12011.0000     2087.8787     2270.8938        1.2650
    7505.94166    12030.0000     2098.6552     2280.3762        1.2710
    7509.82202    11348.0000     1988.4317     2322.8587        1.2770
    7513.72396    12213.0000     2148.1710     2335.2550        1.2840
    7517.64752    12240.0000     2159.9475     2353.7375        1.2900
    7521.58780    11040.0000     1957.7240     2001.2200        1.2960
    7525.54975    12460.0000     2216.5005     2426.7025        1.3020
    7529.52848    12516.0000     2236.2398     2449.0988        1.3090
    7533.52402    12547.0000     2249.0163     2465.5813        1.3150
    7537.54129    12613.0000     2267.7928     2490.0637        1.3210
    7541.58034    12678.0000     2287.5693     2518.5462        1.3270
    7545.63625    12765.0000     2311.3085     2552.9425        1.3340
    7549.70907    12809.0000     2327.0850     2578.4250        1.3400
    7553.80373    12862.0000     2343.8615     2600.9075        1.3460
    7557.91534    12926.0000     2363.6380     2626.3900        1.3520
    7562.04392    12994.0000     2386.3773     2646.7863        1.3590
    7566.19441    13059.0000     2407.1537     2668.2688        1.3650
    7570.36686    13130.0000     2428.9302     2696.7512        1.3710
    7574.55141    13188.0000     2450.7067     2736.2337        1.3770
    7578.76290    13242.0000     2471.4460     2777.6300        1.3840
    7582.98655    13305.0000     2495.2225     2825.1125        1.3900
    7587.23224    13365.0000     2517.9990     2867.5950        1.3960
    7591.50002    13419.0000     2539.7755     2903.0775        1.4020
    7595.78001    13474.0000     2561.5147     2933.4738        1.4090
    7600.08213    13532.0000     2581.2913     2959.9563        1.4150
    7604.40642    13587.0000     2602.0678     2987.4387        1.4210
    7608.74793    13634.0000     2620.8443     3018.9212        1.4270
    7613.10670    13693.0000     2642.5835     3054.3175        1.4340
    7617.48772    13730.0000     2660.3600     3084.8000        1.4400
    7621.88604    13775.0000     2679.1365     3107.2825        1.4460
    7626.30168    13811.0000     2695.9130     3129.7650        1.4520
    7630.73965    13874.0000     2717.6523     3159.1613        1.4590
    7635.19499    13908.0000     2733.4288     3188.6438        1.4650
    7639.66773    13958.0000     2753.2052     3221.1262        1.4710
    7644.15790    14010.0000     2772.9817     3258.6087        1.4770
    7648.67049    14070.0000     2794.7210     3295.0050        1.4840
    7653.20553    14134.0000     2815.4975     3330.4875        1.4900
    7657.75309    14193.0000     2837.2740     3363.9700        1.4960
    7662.32315    14257.0000     2862.0505     3402.4525        1.5020
    7666.91076    14341.0000     2890.7897     3441.8488        1.5090
    7671.52093    14398.0000     2914.5662     3474.3313        1.5150
    7676.14869    14448.0000     2938.3427     3507.8137        1.5210
    7680.79407    14531.0000     2968.1193     3547.2962        1.5270
    7685.45710    14633.0000     3001.8585     3594.6925        1.5340
    7690.14279    14719.0000     3030.6350     3644.1750        1.5400
    7694.84617    14785.0000     3057.4115     3687.6575        1.5460
    7699.56726    14857.0000     3086.1880     3736.1400        1.5520
    7704.30609    14915.0000     3110.9273     3777.5363        1.5590
    7709.06770    14952.0000     3133.7038     3815.0188        1.5650
    7713.84709    14984.0000     3154.4803     3850.5012        1.5710
    7718.64429    15024.0000     3176.2568     3889.9837        1.5770
    7723.45932    15086.0000     3200.9960     3929.3800        1.5840
    7728.29724    15112.0000     3219.7725     3957.8625        1.5900
    7733.15304    15160.0000     3242.5490     3990.3450        1.5960
    7738.02675    15196.0000     3263.3255     4020.8275        1.6020
    7742.91839    15243.0000     3286.0648     4058.2238        1.6090
    7747.83302    15286.0000     3307.8412     4093.7063        1.6150
    7752.76563    15340.0000     3331.6177     4133.1888        1.6210
    7757.71624    15391.0000     3356.3942     4169.6713        1.6270
    7762.68488    15447.0000     3381.1335     4216.0675        1.6340
    7767.67157    15485.0000     3402.9100     4255.5500        1.6400
    7772.68139    15543.0000     3428.6865     4303.0325        1.6460
    7777.70425    15603.0000     3454.4630     4345.5150        1.6520
    7782.75029    15652.0000     3479.2022     4389.9113        1.6590
    7787.81954    15703.0000     3504.9788     4435.3938        1.6650
    7792.90190    15753.0000     3532.7553     4480.8763        1.6710
    7798.00245    15815.0000     3559.5318     4529.3588        1.6770
    7803.12629    15882.0000     3590.2710     4580.7550        1.6840
    7808.26838    15934.0000     3618.0475     4627.2375        1.6900
    7813.42874    15988.0000     3646.8240     4675.7200        1.6960
    7818.60738    16047.0000     3674.6005     4721.2025        1.7020
    7823.80435    16145.0000     3713.3398     4786.5988        1.7090
    7829.01964    16188.0000     3740.1163     4829.0813        1.7150
    7834.25840    16250.0000     3769.8927     4876.5638        1.7210
    7839.51554    16311.0000     3799.6692     4929.0463        1.7270
    7844.78599    16366.0000     3829.4085     4978.4425        1.7340
    7850.07998    16413.0000     3857.1850     5022.9250        1.7400
    7855.39243    16460.0000     3884.9615     5066.4075        1.7460
    7860.72336    16511.0000     3911.7380     5109.8900        1.7520
    7866.07279    16546.0000     3936.4772     5152.2863        1.7590
    7871.44587    16598.0000     3963.2537     5202.7688        1.7650
    7876.83239    16646.0000     3991.0302     5252.2513        1.7710
    7882.24260    16707.0000     4019.8068     5305.7338        1.7770
    7887.66629    16781.0000     4055.5460     5364.1300        1.7840
    7893.11374    16837.0000     4084.3225     5415.6125        1.7900
    7898.57983    16879.0000     4112.0990     5466.0950        1.7960
    7904.06460    16929.0000     4140.8755     5518.5775        1.8020
    7909.56807    16967.0000     4168.6147     5570.9738        1.8090
    7915.08511    17024.0000     4198.3912     5620.4563        1.8150
    7920.62604    17074.0000     4230.1677     5676.9388        1.8210
    7926.19088    17100.0000     4253.9442     5721.4213        1.8270
    7931.76937    17135.0000     4280.6835     5773.8175        1.8340
    7937.36667    17151.0000     4304.4600     5817.3000        1.8400
    7942.98282    17183.0000     4330.2365     5867.7825        1.8460
    7948.61782    17241.0000     4363.0130     5924.2650        1.8520
    7954.27686    17340.0000     4406.7522     5997.6613        1.8590
    7959.94966    17412.0000     4443.5288     6064.1438        1.8650
    7965.64138    17456.0000     4475.3053     6120.6263        1.8710
    7971.35723    17507.0000     4508.0818     6174.1088        1.8770
